fr(MHz);Re(A.U.);Im(A.U.);Abs(A.U.)
55.720363636363636;-0.44273839819997535;-0.6342065643814804;0.7734566927406089
55.72056717750335;-0.08557419407535721;-1.303845100739543;1.3066502934657598
55.72077071864306;0.12971992442573124;-1.872524955071634;1.8770127773030856
55.72097425978277;0.34526893518684393;-2.4127465039018374;2.437325651138066
55.72117780092248;0.5535069767087751;-3.061343410859617;3.110979500491587
55.721381342062195;0.7865378012052859;-3.5615553799212862;3.64737144214448
55.721584883201906;1.0180831881949588;-3.5426524605656735;3.6860385014860104
55.72178842434162;0.9860327982652173;-3.4024825552620173;3.542477694794574
55.72199196548133;0.9670920983005457;-3.2454699282642725;3.3864940841322984
55.72219550662104;0.9449985644307369;-3.0739005418471574;3.215880412568913
55.72239904776075;0.8589174686898012;-2.8052817885932058;2.9338277269521456
55.722602588900465;0.6777965306990044;-2.3244571704527353;2.4212619177397436
55.72280613004017;0.44592918298442896;-1.761963213850484;1.8175167683406628
55.72300967117988;0.07180664994672324;-1.1897546604568405;1.191919605953079
55.72321321231959;-0.23020493164421577;-0.7383173891881905;0.7733736986289254
55.723416753459304;-0.5696995989475332;-0.28352639559902904;0.6363527716937809
55.723620294599016;-0.8337843938775581;0.3754660773463192;0.9144239666104553
55.72382383573873;-1.1480084067776373;0.9531429591852921;1.492114205641319
55.72402737687844;-1.4137544168800835;1.1104001357241646;1.7976901881759795
55.72423091801815;-1.460166613714883;1.2467952516135483;1.9200481606599558
55.72443445915786;-1.5381871083028644;1.3608671339542129;2.053771880327969
55.724638000297574;-1.707441595719991;1.5035608808529348;2.27509387173938
55.724841541437286;-1.7329756137503316;1.6911339662842022;2.421391866215272
55.725045082577;-1.624917537249713;1.6312020086012948;2.302428499590502
55.72524862371671;-1.3819795104701371;1.3755886723283546;1.949900398173549
55.72545216485642;-0.8004077169314712;1.1580784890309357;1.4077635810318525
55.72565570599613;-0.2787845538056836;1.083819879209223;1.1191006916313335
55.725859247135844;0.1730025957387913;1.0450568572721881;1.0592798181141667
55.726062788275556;0.5850125776118694;0.8519677183383715;1.033483773000222
55.72626632941527;1.1074072093389218;0.6533143505530613;1.2857567296866024
55.72646987055498;1.5884073750307688;0.7290463263516966;1.7477261041190184
55.72667341169469;2.071886955608799;0.79054373904627;2.2175831348941926
55.7268769528344;2.6349062390789033;0.903883082202126;2.7856301827464724
55.727080493974114;3.209312572784031;1.0306066369723874;3.3707324471101514
55.727284035113826;3.5330841493178733;1.0579348636374186;3.6880767049860452
55.72748757625353;3.6950431239339276;1.2996975577784542;3.916957675215125
55.72769111739324;3.6188304768036055;1.7148858631450539;4.0045933056251
55.72789465853295;3.208746917643533;2.021280837838406;3.792312356188451
55.728098199672665;2.94208813944326;2.180740779672246;3.6621732575587163
55.72830174081238;2.735003881190269;2.3274237006083163;3.591259850286407
55.72850528195209;2.3403572388861824;2.5559552098485394;3.4655705216253856
55.7287088230918;1.7026706875244702;2.8207534882096947;3.2948046545132557
55.72891236423151;1.0080438323343706;2.8651484369963836;3.0373060323138636
55.72911590537122;0.1220022745975617;2.883516268945746;2.88609608784631
55.729319446510935;-0.7885614687716752;2.7960143005438773;2.9050860845897852
55.72952298765065;-1.637639829243713;2.6398963839895484;3.106592526954005
55.72972652879036;-2.404348580639872;2.5530930424450142;3.5070181323463534
55.72993006993007;-3.0991702489896156;2.2612621644347155;3.836425785614304
55.73013361106978;-3.53112232355782;1.8340059666679864;3.9789951934756282
55.73033715220949;-3.757576165558327;1.5279404258105733;4.056350648649376
55.730540693349205;-4.166570755335328;1.2752851577934219;4.357368941563681
55.73074423448892;-4.521417793542116;0.8852718220773499;4.607268720481084
55.73094777562863;-4.624700685680644;0.41159388751895404;4.642980288605368
55.73115131676834;-4.388831471165094;-0.15151254336103628;4.391445972921094
55.73135485790805;-3.9877310146868497;-0.46086898048957603;4.014274388064786
55.73155839904776;-3.309812054246537;-0.7111985514795116;3.3853595398513048
55.731761940187475;-2.705729922532063;-0.9670924957057531;2.8733677643030218
55.73196548132719;-2.0826833818255226;-1.316334799297845;2.4637993775416644
55.73216902246689;-1.2735787135522556;-1.7395218610512742;2.1559079397526943
55.7323725636066;-0.3256160223611075;-2.010736624188856;2.03693091828679
55.732576104746315;0.41584504402785466;-2.0990405775850136;2.139836079467527
55.732779645886026;1.1162243445272952;-2.28779852432402;2.545580262968456
55.73298318702574;1.9424206888164617;-2.610975703082464;3.254257558096652
55.73318672816545;2.713010132586279;-2.8480600430801424;3.933429799615786
55.73339026930516;3.469133520554969;-3.0138855806800042;4.595475348303912
55.73359381044487;3.978723292032267;-3.069954607216061;5.025421407695796
55.733797351584585;4.288699402156392;-3.380631718107632;5.4609168987938235
55.734000892724296;4.3441389408141715;-3.727760682319715;5.724311560506365
55.73420443386401;4.494256203886072;-4.038459229980698;6.042142978975649
55.73440797500372;4.555542427824024;-4.159688679252596;6.168952643683287
55.73461151614343;4.410077741564817;-4.229646483296623;6.110539670136258
55.73481505728314;3.988573874317383;-4.365768856098437;5.913430413538848
55.735018598422855;3.7400572827216307;-4.750348827272588;6.0459773782912185
55.735222139562566;3.3924428797404316;-4.979092627444358;6.024950795232465
55.73542568070228;2.959900488546233;-4.89820401513701;5.723059800141927
55.73562922184199;2.509412799784151;-4.75151638384563;5.373458899598468
55.7358327629817;1.8157496379394358;-4.717036806495855;5.054441906038075
55.73603630412141;1.1482407644476664;-4.7043422191660165;4.842446960800624
55.736239845261125;0.7016035649045701;-4.43958580872088;4.494682382024633
55.736443386400836;0.36630871766089196;-4.063777421055549;4.080253546596738
55.73664692754055;-0.04912489939169544;-3.5148327345166868;3.515176013711162
55.73685046868025;-0.38418239042893165;-3.074455150707282;3.0983657922889325
55.737054009819964;-0.74431675266724;-2.7177374127790075;2.817819027744656
55.737257550959676;-0.9202866251717525;-2.2541350466799015;2.4347591833979423
55.73746109209939;-1.2737926329546205;-1.3849092973219999;1.8816273365303715
55.7376646332391;-1.575831761077262;-0.6263910620726819;1.695762808256039
55.73786817437881;-1.7777247735826045;-0.1178696374222889;1.781628081849684
55.73807171551852;-1.885320080423018;0.2950804260610053;1.9082725862650227
55.738275256658234;-1.7287304773786896;0.8486374708936996;1.9257971389590356
55.738478797797946;-1.5337346684629394;1.4012273214791982;2.0774455563756393
55.73868233893766;-1.6695994772080733;1.882245141386519;2.516030442297277
55.73888588007737;-1.9079402540903976;2.2458882909480256;2.9469051950471656
55.73908942121708;-2.016968316136843;2.2928332803833134;3.053726516886081
55.73929296235679;-2.095950627138592;2.3760846248680467;3.1684045158307965
55.739496503496504;-1.9347968739134134;2.619537471116932;3.2565956927274233
55.739700044636216;-1.870941088451373;2.6798104255512465;3.2683029959519914
55.73990358577593;-1.764792343027382;2.2975949652980994;2.897142495385971
55.74010712691564;-1.676351319984877;1.9759206194070897;2.5912190262911268
55.74031066805535;-1.6372791563550058;1.7181434463155685;2.3733309794362225
55.74051420919506;-1.6348927730744276;1.5309337307138091;2.2397840224647316
55.740717750334774;-1.7490023958489138;1.226934809018104;2.136440592730238
55.740921291474486;-1.8811272048519754;0.8360501743353517;2.0585478995739637
55.7411248326142;-1.6804436738592812;0.22828534913293982;1.6958788699793468
55.74132837375391;-1.2731902185437678;-0.3596509528750343;1.3230125246948523
55.74153191489361;-1.0101234585915397;-0.6638169715857027;1.2087193112390269
55.741735456033325;-0.8275698532974832;-0.9609287578447984;1.2681703118035705
55.74193899717304;-0.9500793814016286;-1.505204671399305;1.7799696440576707
55.74214253831275;-0.9862592189847289;-1.9103836250024957;2.1499471718416814
55.74234607945246;-0.895211627016164;-2.1841875627975313;2.3605251887290564
55.74254962059217;-0.6225057423654209;-2.648044975574267;2.720230797550466
55.74275316173188;-0.40483754126622784;-3.0485156517917025;3.075279030273103
55.742956702871595;-0.2899013788093282;-3.464071913597876;3.476181386523609
55.74316024401131;-0.21768089457991255;-3.86667349884319;3.8727960078632266
55.74336378515102;-0.1197157673826664;-4.168319994309334;4.1700387815845295
55.74356732629073;-0.16551692155136147;-4.350698682579522;4.353845986931443
55.74377086743044;-0.32985895710698476;-4.610394116996927;4.6221792312310415
55.74397440857015;-0.49741794552468827;-5.030651223012619;5.0551831163795
55.744177949709865;-0.734752741737422;-5.456748705188117;5.505993827009148
55.74438149084958;-0.7312021259166323;-5.617256607661079;5.664647239260098
55.74458503198929;-0.8000761364654944;-5.882404424805641;5.93656496983858
55.744788573129;-0.9357264499046417;-6.133849932377866;6.204812566224954
55.74499211426871;-1.3305064817177275;-6.057227973548276;6.201633512344038
55.74519565540842;-1.7726261754603567;-6.044829837804788;6.299378646020754
55.745399196548135;-2.186591402830561;-6.07342226425307;6.455047634437519
55.74560273768785;-2.5011153752436917;-5.981869798959582;6.483698359114583
55.74580627882756;-2.8429192654458397;-5.962603872302857;6.6056668768447695
55.74600981996727;-3.1067435807888573;-5.81424711196613;6.592217013704817
55.74621336110698;-3.3848315264491933;-5.312124840828759;6.29886932607705
55.746416902246686;-3.637820968629494;-4.726550664894166;5.964396246696887
55.7466204433864;-3.7726198317443647;-4.180629811536904;5.63119223752679
55.74682398452611;-4.072749622756641;-3.7948332562465708;5.566691021817118
55.74702752566582;-4.303081428923226;-3.257124428827329;5.396792503775526
55.74723106680553;-4.564134172605405;-2.544470390732805;5.225480869246425
55.747434607945245;-4.585985167061155;-2.011947249457015;5.007912907300064
55.747638149084956;-4.4094883621548195;-1.4525697893479703;4.642579736407895
55.74784169022467;-4.1131113994390125;-0.8236311217096424;4.194765024270589
55.74804523136438;-3.868762326550902;-0.31261282069232776;3.881372014507339
55.74824877250409;-3.5957899882253233;0.3523156003771612;3.6130087076688024
55.7484523136438;-3.4828644590955;0.9210173524440287;3.60258487810261
55.748655854783514;-3.281884197774307;0.9692556917415984;3.4220199420187765
55.748859395923226;-2.930562075443841;0.9687964230124373;3.0865450891362998
55.74906293706294;-2.543435947511211;1.0858807890633775;2.765538556438719
55.74926647820265;-1.9418650388968328;1.3321656856087107;2.354889645652875
55.74947001934236;-1.4318382673897634;1.4857404982280966;2.0633917834567415
55.74967356048207;-0.9698358276351255;1.3602640476687957;1.6705986387953884
55.749877101621784;-0.7499889979078249;1.098746010065071;1.330310599678397
55.750080642761496;-0.6664081224413765;0.8563942035633165;1.0851317051642568
55.75028418390121;-0.6472105477888147;0.5765970550662826;0.8668019710869417
55.75048772504092;-0.5422391287740337;0.41510257753260704;0.6828860978580814
55.75069126618063;-0.5077039471037268;0.058223719067018856;0.5110316030997486
55.75089480732034;-0.3643123206419256;-0.31204879844948774;0.4796852296926331
55.75109834846005;-0.4340546956085295;-0.27290060725670784;0.5127165105795728
55.75130188959976;-0.7328086799979894;-0.1801784258776758;0.7546342336736074
55.75150543073947;-1.1330996544298177;-0.26245005076030725;1.1630970965543075
55.75170897187918;-1.7947732058951809;-0.4951220142164453;1.8618154230645463
55.751912513018894;-2.3706684893367056;-0.7683582497097612;2.4920761397339017
55.752116054158606;-2.849032791031698;-0.7562123921603618;2.9476846891129256
55.75231959529832;-3.1604203897391834;-0.4077658153415891;3.186617328773626
55.75252313643803;-3.4443212720189655;-0.10413365133460686;3.4458950712728647
55.75272667757774;-3.7684010250983797;0.16935563717957194;3.772204609748392
55.75293021871745;-4.27867717286843;0.2299039301869597;4.284849375035345
55.753133759857164;-4.667378234556665;0.36605035771920397;4.681710419152347
55.753337300996876;-5.012881229956828;0.6007524003629768;5.048750506035662
55.75354084213659;-5.024052696918483;0.6605954602647277;5.067296307059244
55.7537443832763;-4.840809052546742;0.6404709615574067;4.882994504995552
55.75394792441601;-4.607880152206882;0.8205109113581296;4.680362983013163
55.75415146555572;-4.137408486590438;1.0662088892593424;4.272581231579596
55.754355006695434;-3.7135772740358886;1.3397778243382017;3.9478678788460266
55.754558547835146;-3.270445053268765;1.3397388761265392;3.534220013334617
55.75476208897486;-2.7755485229947405;0.9763424910462608;2.9422634591961176
55.75496563011457;-2.2876550260188586;0.628231854885339;2.372349211554239
55.75516917125428;-1.7610995337553144;0.39847875176780456;1.805618144404739
55.75537271239399;-0.9522702221272955;0.4241412114297748;1.042455919060123
55.755576253533704;-0.30138339217285626;0.4620544623056767;0.5516577518844502
55.75577979467341;0.24611505692986482;0.2843583007470266;0.3760748123064439
55.75598333581312;0.5556141540229423;0.05467552368604048;0.5582978605018765
55.75618687695283;0.6801021058876919;-0.14431666889025055;0.6952454065669557
55.75639041809254;0.7404566527199276;-0.5329663958148982;0.9123207953483918
55.756593959232255;0.6407330493460144;-0.8541469077291225;1.0677573603152843
55.75679750037197;0.5217554116634829;-1.0960849221217188;1.2139319857812072
55.75700104151168;0.20200450020561256;-1.190419645113721;1.2074372652755077
55.75720458265139;-0.2583927147697964;-1.0381843644094277;1.0698567986185405
55.7574081237911;-0.6963678552668223;-0.9531092240112229;1.1804005179362593
55.75761166493081;-1.2055078522082459;-1.1004678801691516;1.6322618469533998
55.757815206070525;-2.080673120645077;-1.4317138655601391;2.525669263346268
55.75801874721024;-2.8004131954820144;-1.7256774430925899;3.2894189005093843
55.75822228834995;-3.483126105509834;-1.8130122407132574;3.9267264803981714
55.75842582948966;-4.068067979404853;-1.7214333112242228;4.4172966540692595
55.75862937062937;-4.384888020983279;-1.67010797161882;4.692174718979184
55.75883291176908;-4.619268410673032;-1.5182425817290162;4.862376084469089
55.759036452908795;-4.885199707695258;-1.4784428389048387;5.104015028580425
55.75923999404851;-5.067020198686204;-1.5536019553882516;5.299846481708708
55.75944353518822;-4.853452340924011;-1.6880930527025397;5.138643573960286
55.75964707632793;-4.575069858768626;-1.899979645528322;4.953906222975472
55.75985061746764;-4.20249436929727;-2.00195323231366;4.654973218864569
55.76005415860735;-3.666908622808346;-1.774764698610593;4.0738199007148745
55.760257699747065;-2.8868047875670566;-1.4282644684034012;3.2208044450453257
55.76046124088677;-2.207200891547349;-1.2104326652468786;2.5173166294179357
55.76066478202648;-1.261904726767116;-1.1050566403723556;1.6773651116761155
55.76086832316619;-0.4584166844782872;-1.2083508580795617;1.292384483359994
55.761071864305904;0.10273617784341735;-1.2303908292175179;1.2346725537001482
55.761275405445616;0.6590541519674272;-1.1445092125990226;1.3207019773399067
55.76147894658533;1.2737476303679638;-0.9581956101126896;1.5939171412301307
55.76168248772504;1.8158596120137949;-0.7278824351401375;1.9563125951463958
55.76188602886475;2.060343126893147;-0.360913739571112;2.0917152119605182
55.76208957000446;2.1666178918814585;-0.10456767717631943;2.169139803823374
55.762293111144174;2.060287485248719;0.027251028519673773;2.060467699438133
55.762496652283886;1.762204997353809;-0.10591028779912379;1.7653847857508094
55.7627001934236;1.315839813157518;-0.3693946977259713;1.3667065729696604
55.76290373456331;0.9740459665690412;-0.4770582336365844;1.0845967468464377
55.76310727570302;0.13224891957717622;-0.39293588684958125;0.41459424489927177
55.76331081684273;-0.6131481901985547;-0.19842444452292296;0.6444555557429802
55.763514357982444;-1.2893115425890942;-0.12211754338037044;1.2950818307175522
55.763717899122156;-2.0691447417541156;-0.34945341143569675;2.09844648468641
55.76392144026187;-2.835396341212119;-0.7412106687758838;2.9306766568944895
55.76412498140158;-3.528477741799271;-1.0479608943863354;3.680812031405012
55.76432852254129;-4.285514002625705;-1.4518606095544053;4.524768446702735
55.764532063681;-4.811895480486051;-1.6335241972480328;5.081607955964028
55.764735604820714;-5.228537869418398;-1.6480018760467443;5.482108940489588
55.764939145960426;-5.534413047269284;-1.6606539132591311;5.778191689223139
55.76514268710013;-5.65063150063052;-1.599220158927961;5.87257536968573
55.76534622823984;-5.925075868553118;-1.564124341244518;6.128050995462104
55.765549769379554;-5.8734710208077034;-1.787026883714607;6.139309970622645
55.765753310519266;-5.705508737983587;-1.9410504491094718;6.026649716483873
55.76595685165898;-5.581982059928215;-1.8152336633531505;5.869718644869696
55.76616039279869;-5.343566757553052;-1.4427993401079522;5.534923272118773
55.7663639339384;-5.070357039863974;-0.8764835564737323;5.145555746123737
55.76656747507811;-4.966790969904163;-0.39328800708860845;4.982337603499111
55.766771016217824;-4.686171169914684;0.04104893554030217;4.686350952377398
55.766974557357536;-4.470546733989577;0.3088239065996759;4.481200766097449
55.76717809849725;-4.211761874773222;0.5784626834811158;4.251300644035119
55.76738163963696;-3.968387776089058;1.021463962830083;4.097742081777914
55.76758518077667;-3.84015699756133;1.4645689005005196;4.109959589853962
55.76778872191638;-3.577894192553182;1.785150016044077;3.998510651841252
55.767992263056094;-3.4315526987511706;2.23853943208635;4.097146899161894
55.768195804195805;-3.4220714546703808;2.5489988908174643;4.2670796086150675
55.76839934533552;-3.142408245204998;2.5832019638982344;4.067881754159043
55.76860288647523;-2.8319351496643033;2.557121610792952;3.8155900755045113
55.76880642761494;-2.45558927069346;2.3632035402721536;3.4080272356745738
55.76900996875465;-1.7965127461609844;2.075766029434108;2.7452254290078844
55.769213509894364;-1.2582073876795097;1.7834051298030895;2.1825718057876746
55.769417051034075;-0.8262292661842737;1.5799775976796173;1.7829705576561994
55.76962059217379;-0.29767686535813526;1.1716300631857914;1.208854218311781
55.76982413331349;0.37861642806399476;0.6239980305653818;0.7298794021956048
55.7700276744532;1.2714558178105668;0.06863160881046855;1.2733067950703203
55.770231215592915;2.167251863877023;-0.4148872000581549;2.206606451148579
55.77043475673263;3.0411346393603598;-1.0378289652266641;3.2133454305102207
55.77063829787234;3.8804248924487768;-1.5482960459429915;4.177908327359374
55.77084183901205;4.328108944979713;-2.0265527709792974;4.779063001591136
55.77104538015176;4.754870140738162;-2.4879309900458666;5.366431837498167
55.77124892129147;5.140697493774668;-2.7255427122941094;5.818535365454152
55.771452462431185;5.237431439986116;-2.7722081980356545;5.9258608135705595
55.7716560035709;5.328430533719599;-2.785154668887723;6.01242534110008
55.77185954471061;5.459969251749743;-2.926480782120587;6.194800561614052
55.77206308585032;5.1653328441035145;-2.927417207847603;5.93720766852371
55.77226662699003;4.558609590139131;-2.7641250249560945;5.331163901897688
55.77247016812974;3.603962987244387;-2.4719731169384445;4.370263184785769
55.772673709269455;2.498931694881148;-2.1429509979380073;3.291944500632577
55.77287725040917;1.5120795124383462;-1.5941223056201406;2.197182372314929
55.77308079154888;0.5984544344376581;-1.2099899529094862;1.3498975502755748
55.77328433268859;-0.1298518310769483;-0.69840602700452;0.7103748845435589
55.7734878738283;-1.0460814830029481;-0.13284079198900176;1.054482406253377
55.77369141496801;-2.172368483325804;0.26334106184846234;2.1882717706452115
55.773894956107725;-3.1287755759956117;0.4448965523811929;3.160248336328546
55.77409849724744;-3.809186421462306;0.6884173911043172;3.870893914566464
